Angle Bartlett MVDR MUSIC
-90.0 -18.366362347089296 -2.944271985930192 -34.02068363077742
-89.81981981981981 -18.366362569738097 -2.944324599650944 -34.02059498494336
-89.63963963963964 -18.366365909452885 -2.9444824256637365 -34.02032886151304
-89.45945945945945 -18.36638038141463 -2.94474541804248 -34.019884703491336
-89.27927927927928 -18.366419343876082 -2.9451134986522827 -34.01926158518702
-89.09909909909909 -18.36650149769965 -2.945586554765529 -34.018458216175546
-88.91891891891892 -18.366650885932426 -2.9461644357309105 -34.01747294687017
-88.73873873873873 -18.36689689364068 -2.9468469487019746 -34.016303775724516
-88.55855855855856 -18.36727424828924 -2.947633853433863 -34.014948358096206
-88.37837837837837 -18.36782302101462 -2.9485248561591315 -34.01340401680735
-88.1981981981982 -18.36858862920458 -2.9495196025557395 -34.01166775444368
-88.01801801801801 -18.369621840860084 -2.950617669822966 -34.00973626743999
-87.83783783783784 -18.370978781280026 -2.951818557883641 -34.00760596200512
-87.65765765765765 -18.372720942673354 -2.953121679733934 -34.005272971944834
-87.47747747747748 -18.374915197368637 -2.954526350965254 -34.002733178445844
-87.29729729729729 -18.377633815357505 -2.9560317784860435 -33.99998223188852
-87.11711711711712 -18.380954486975792 -2.9576370484751506 -33.99701557575977
-86.93693693693693 -18.384960351596355 -2.9593411136021777 -33.99382847274087
-86.75675675675676 -18.389740033278844 -2.961142779554643 -33.99041603304752
-86.57657657657657 -18.39538768439711 -2.963040690916256 -33.98677324510144
-86.3963963963964 -18.402003038343175 -2.965033316445412 -33.98289500861392
-86.21621621621621 -18.40969147248981 -2.9671189338082025 -33.97877617016153
-86.03603603603604 -18.418564082682273 -2.96929561382558 -33.97441156133358
-85.85585585585585 -18.428737770623965 -2.971561204300045 -33.969796039528646
-85.67567567567568 -18.440335345623563 -2.973913313493127 -33.9649245314738
-85.49549549549549 -18.453485642281514 -2.9763492933311357 -33.959792079535546
-85.31531531531532 -18.468323655815027 -2.978866222423034 -33.95439389088453
-85.13513513513513 -18.484990696853366 -2.9814608889808754 -33.9487253895677
-84.95495495495496 -18.503634567680162 -2.9841297737399963 -33.94278227153093
-84.77477477477477 -18.524409762061715 -2.9868690329829137 -33.93656056262263
-84.5945945945946 -18.547477690976038 -2.989674481777953 -33.930056679592916
-84.41441441441441 -18.573006936754435 -2.992541577550418 -33.923267494085465
-84.23423423423424 -18.601173538364833 -2.995465404111088 -33.91619039959745
-84.05405405405405 -18.63216131080432 -2.9984406562736776 -33.9088233813589
-83.87387387387388 -18.66616220183395 -3.001461625199542 -33.90116508905453
-83.69369369369369 -18.70337668957784 -3.0045221846143306 -33.893214912279085
-83.51351351351352 -18.744014224827794 -3.007615778047581 -33.88497305858112
-83.33333333333333 -18.78829372223835 -3.0107354072519987 -33.876440633909255
-83.15315315315316 -18.836444104972372 -3.0138736219646005 -33.86761972522936
-82.97297297297297 -18.888704907752732 -3.0170225111767546 -33.858513485030514
-82.7927927927928 -18.945326943696962 -3.020173696084609 -33.84912621738109
-82.61261261261261 -19.006573040739784 -3.023318324894808 -33.83946346513524
-82.43243243243244 -19.0727188538798 -3.0264470696635652 -33.829532097821804
-82.25225225225225 -19.144053759894696 -3.0295501253490014 -33.81934039967489
-82.07207207207207 -19.220881841523795 -3.032617211257926 -33.808898157185936
-81.89189189189189 -19.303522968374516 -3.035637575068308 -33.79821674547206
-81.71171171171171 -19.392313981901353 -3.0385999996077144 -33.78730921266518
-81.53153153153153 -19.48760999163625 -3.04149281256584 -33.77619036143072
-81.35135135135135 -19.58978578927775 -3.0443038993157745 -33.76487682662508
-81.17117117117117 -19.69923738607875 -3.0470207190138074 -33.753387147997024
-80.990990990991 -19.81638367692017 -3.0496303241413107 -33.74174183673294
-80.8108108108108 -19.941668231116992 -3.0521193836442473 -33.729963434538355
-80.63063063063063 -20.075561204797832 -3.0544742098163766 -33.71807656384249
-80.45045045045045 -20.21856136179684 -3.0566807890608114 -33.70610796760933
-80.27027027027027 -20.371198178218066 -3.0587248166512837 -33.694086537141295
-80.09009009009009 -20.534033988467982 -3.060591735599345 -33.682043326172334
-79.90990990990991 -20.707666105165185 -3.062266779716052 -33.67001154947047
-79.72972972972973 -20.892728808381364 -3.063735020937315 -33.6580265641083
-79.54954954954955 -21.089895046040933 -3.064981420959672 -33.64612583151869
-79.36936936936937 -21.29987760958729 -3.0659908872088892 -33.63434885843645
-79.1891891891892 -21.52342943642015 -3.0667483331362506 -33.622737114839204
-79.009009009009 -21.76134252741827 -3.0672387428073087 -33.611333927048655
-78.82882882882883 -22.01444473117746 -3.067447239714638 -33.60018434424035
-78.64864864864865 -22.283593303135515 -3.0673591597097234 -33.58933497674239
-78.46846846846847 -22.569663649272616 -3.066960127909488 -33.57883380468536
-78.28828828828829 -22.87353094137799 -3.066236139389613 -33.5687299558014
-78.10810810810811 -23.196041246210353 -3.0651736434301475 -33.55907345146371
-77.92792792792793 -23.53796731016662 -3.063759631028156 -33.54991492041036
-77.74774774774775 -23.899942009766146 -3.0619817253377923 -33.54130528001059
-77.56756756756756 -24.282359511372754 -3.059828274639779 -33.533295385404905
-77.38738738738739 -24.68523019570512 -3.0572884473799844 -33.52593564738229
-77.2072072072072 -25.107970373434934 -3.05435232875064 -33.51927562044088
-77.02702702702703 -25.549102247547918 -3.051011018217827 -33.513363563107816
-76.84684684684684 -26.00583525953546 -3.047256727325455 -33.50824597325715
-76.66666666666667 -26.473501475255055 -3.0430828770295615 -33.50396710185099
-76.48648648648648 -26.944834857788624 -3.0384841937375113 -33.50056844922217
-76.30630630630631 -27.409135010861313 -3.033456803145749 -33.498088248698956
-76.12612612612612 -27.85146557473424 -3.027998320887833 -33.496560943025095
-75.94594594594595 -28.252224056511487 -3.0221079389223515 -33.49601665962999
-75.76576576576576 -28.587648007705063 -3.0157865065102287 -33.49648069133331
-75.58558558558559 -28.83192417226902 -3.009036604553547 -33.49797298950351
-75.4054054054054 -28.96122010540287 -3.001862611996065 -33.500507677011825
-75.22522522522523 -28.95893598170439 -2.9942707629212286 -33.504092588512854
-75.04504504504504 -28.820206856782505 -2.986269192928981 -33.50872884562573
-74.86486486486487 -28.55338029220437 -2.9778679733317643 -33.51441047447568
-74.68468468468468 -28.17763083537725 -2.9690791316854046 -33.52112407277752
-74.50450450450451 -27.71804438787393 -2.959916657166437 -33.528848533202094
-74.32432432432432 -27.200528894520456 -2.9503964893272023 -33.537554829168
-74.14414414414415 -26.648243724138702 -2.940536488808462 -33.5472058684574
-73.96396396396396 -26.07994171025362 -2.93035638867023 -33.55775641918402
-73.78378378378379 -25.509758059924312 -2.9198777251197527 -33.56915311166696
-73.6036036036036 -24.947777058254896 -2.909123746574701 -33.58133451871368
-73.42342342342343 -24.40086579501201 -2.8981193002044927 -33.59423131572093
-73.24324324324324 -23.873491108927475 -2.886890695345703 -33.607766520896504
-73.06306306306307 -23.36840355033943 -2.8754655434925187 -33.62185581482194
-72.88288288288288 -22.887164761613 -2.8638725749209515 -33.63640793754882
-72.70270270270271 -22.430534962606057 -2.8521414324177807 -33.65132516047975
-72.52252252252252 -21.99874923141753 -2.840302443049964 -33.66650382945661
-72.34234234234233 -21.591710685248287 -2.828386369426284 -33.68183497478274
-72.16216216216216 -21.209123754890275 -2.8164241424644585 -33.69720498336045
-71.98198198198199 -20.850585213183255 -2.804446578278828 -33.71249632773729
-71.8018018018018 -20.51564583066954 -2.792484082435685 -33.727588346627556
-71.62162162162161 -20.203851810875328 -2.78056634547578 -33.74235807140461
-71.44144144144144 -19.914772419731445 -2.7687220342617547 -33.756681093133814
-71.26126126126127 -19.648018269982277 -2.7569784843581036 -33.770432464918855
-71.08108108108108 -19.40325335221601 -2.745361399274429 -33.783487634643386
-70.9009009009009 -19.18020295485409 -2.7338945629810345 -33.79572340358043
-70.72072072072072 -18.978658961725795 -2.722599572619279 -33.80701890678205
-70.54054054054055 -18.798483568037682 -2.711495598757509 -33.81725661162127
-70.36036036036036 -18.639612150404222 -2.7005991808665253 -33.82632333130075
-70.18018018018017 -18.50205582042165 -2.689924065887625 -33.83411125053408
-70.0 -18.385904053944145 -2.6794810978232504 -33.840518960907964
-69.81981981981983 -18.291327699285855 -2.6692781661805407 -33.84545250361176
-69.63963963963964 -18.21858261307256 -2.6593202208276976 -33.84882641723627
-69.45945945945945 -18.16801414302713 -2.6496093603737263 -33.850564788161705
-69.27927927927928 -18.140062666210575 -2.6401450005461924 -33.85060230063867
-69.0990990990991 -18.135270394836226 -2.630924128216872 -33.848885282982245
-68.91891891891892 -18.154289676540692 -2.621941645709903 -33.84537274531565
-68.73873873873873 -18.19789303927825 -2.6131908088248728 -33.84003740298824
-68.55855855855856 -18.26698525966029 -2.6046637606200873 -33.83286667812832
-68.37837837837839 -18.36261776296769 -2.596352161434518 -33.82386366975972
-68.1981981981982 -18.486005685060093 -2.588247913884471 -33.8130480805048
-68.01801801801801 -18.638547926060582 -2.5803439796557486 -33.80045708512587
-67.83783783783784 -18.821850475365423 -2.5726352828257775 -33.786146123048525
-67.65765765765767 -19.03775313597635 -2.5651196921918378 -33.77018959361781
-67.47747747747748 -19.288359428502364 -2.5577990726489124 -33.75268142924596
-67.29729729729729 -19.57606873515464 -2.5506803930491473 -33.7337355179409
-67.11711711711712 -19.903608322594675 -2.543776875182286 -33.713485943126
-66.93693693693695 -20.274060140644544 -2.5371091655408993 -33.69208700539319
-66.75675675675676 -20.690872058250946 -2.5307065083833304 -33.66971298814509
-66.57657657657657 -21.157833228043717 -2.5246078952975233 -33.64655762730681
-66.3963963963964 -21.67897427186218 -2.518863163036285 -33.62283324480035
-66.21621621621622 -22.25831675887472 -2.5135340078971664 -33.59876950668855
-66.03603603603604 -22.89932772627487 -2.508694881449875 -33.5746117702407
-65.85585585585585 -23.603807049754685 -2.5044337291002092 -33.55061899005961
-65.67567567567568 -24.369709370573354 -2.5008525299988893 -33.52706116219617
-65.4954954954955 -25.18705454667051 -2.498067594385129 -33.50421629709993
-65.31531531531532 -26.03075301428379 -2.496209572880102 -33.482366927385186
-65.13513513513513 -26.84969121521155 -2.4954231318500444 -33.46179617456469
-64.95495495495496 -27.555333891604626 -2.4958662501199287 -33.44278341966466
-64.77477477477478 -28.02375218119122 -2.4977090954398284 -33.425599645202496
-64.5945945945946 -28.134042644935455 -2.501132444589791 -33.410502539260364
-64.41441441441441 -27.83824554152482 -2.5063256192185768 -33.39773147488937
-64.23423423423424 -27.19679553256072 -2.5134839207208097 -33.38750249815657
-64.05405405405406 -26.334858861885152 -2.5228055617979788 -33.38000347401179
-63.873873873873876 -25.37370554954189 -2.5344881097439362 -33.375389549064806
-63.693693693693696 -24.39748589710583 -2.5487244766063744 -33.37377909283462
-63.513513513513516 -23.45400208742813 -2.565698513551991 -33.37525027301729
-63.333333333333336 -22.566508445659082 -2.5855802900213503 -33.37983840539925
-63.153153153153156 -21.744223844577956 -2.60852116129504 -33.38753419554489
-62.972972972972975 -20.98907947082487 -2.6346487493329906 -33.39828295842451
-62.792792792792795 -20.299526072694903 -2.6640619794573075 -33.411984865557
-62.612612612612615 -19.672552318517823 -2.6968263278743683 -33.428496229429335
-62.432432432432435 -19.10471389522511 -2.732969440592157 -33.44763179465553
-62.252252252252255 -18.592638264671418 -2.7724772817717653 -33.46916796733151
-62.072072072072075 -18.13325779825191 -2.8152909583021235 -33.492846880855545
-61.891891891891895 -17.723905047158052 -2.8613043474505058 -33.518381170134184
-61.711711711711715 -17.362340254509956 -2.9103626266380207 -33.545459307905766
-61.531531531531535 -17.046747737569014 -2.962261770293912 -33.573751347424654
-61.351351351351354 -16.77572025380753 -3.0167490405647768 -33.602914914722334
-61.171171171171174 -16.548241330078607 -3.0735244590343314 -33.6326013001814
-60.990990990990994 -16.36367081417047 -3.1322432083462237 -33.66246151179475
-60.81081081081081 -16.221736540294234 -3.192518878385087 -33.692152169488956
-60.630630630630634 -16.12253391346173 -3.253927443724903 -33.721341139404615
-60.45045045045045 -16.066534860459154 -3.3160118390473436 -33.74971282725221
-60.270270270270274 -16.054607693103613 -3.378286988069019 -33.7769730692071
-60.09009009009009 -16.08804986384724 -3.4402451393282414 -33.80285357598295
-59.90990990990991 -16.168636340950286 -3.5013613683910307 -33.82711589978865
-59.729729729729726 -16.29868743577124 -3.5610991194974364 -33.849554904249096
-59.54954954954955 -16.481161485523124 -3.6189156788523835 -33.870001723814966
-59.369369369369366 -16.719780003330744 -3.6742674949533787 -33.88832620176866
-59.18918918918919 -17.019195993074415 -3.726615286824636 -33.904438794983534
-59.009009009009006 -17.385220370706183 -3.7754289072255673 -33.91829192966986
-58.82882882882883 -17.825127026888858 -3.8201919535087976 -33.92988078619448
-58.648648648648646 -18.3480636202001 -3.860406142810896 -33.93924348361297
-58.46846846846847 -18.965600131483438 -3.895595489972422 -33.94646062687282
-58.288288288288285 -19.69244059432744 -3.925310345588085 -33.951654172936955
-58.10810810810811 -20.54727104164433 -3.949131367680798 -33.954985567646375
-57.92792792792793 -21.553503419191227 -3.966673513612922 -33.956653104363326
-57.74774774774775 -22.73890785719992 -3.9775901489668932 -33.95688845968084
-57.56756756756757 -24.130437459934893 -3.9815773771613787 -33.95595237202211
-57.38738738738739 -25.73133561705099 -3.9783786972631847 -33.954129446811464
-57.20720720720721 -27.440328286010903 -3.967790097278785 -33.951722097703076
-57.02702702702703 -28.84587662792093 -3.9496656852383634 -33.94904366712575
-56.84684684684685 -29.138446850915813 -3.9239239491883264 -33.94641081038059
-56.66666666666667 -28.006172223063448 -3.8905547177306006 -33.94413527401122
-56.48648648648649 -26.16319678525569 -3.8496268622175016 -33.942515248439555
-56.30630630630631 -24.267190030679867 -3.801296736586775 -33.941826523252494
-56.12612612612613 -22.551097521928636 -3.7458172868275037 -33.94231371661173
-55.94594594594595 -21.050962858925907 -3.683547674396559 -33.944181883253975
-55.76576576576577 -19.74789882422551 -3.614963141681672 -33.94758882383931
-55.58558558558559 -18.613890190992567 -3.5406646987600023 -33.95263841819427
-55.4054054054054 -17.623642759871064 -3.461388027386797 -33.95937528394505
-55.22522522522522 -16.756714601488355 -3.378010782882412 -33.96778101979035
-55.04504504504504 -15.997151776724706 -3.291557237104852 -33.97777223114551
-54.86486486486486 -15.332652497880774 -3.2031989664043503 -33.989200459267515
-54.68468468468468 -14.75378968192874 -3.1142500818582377 -34.00185404926743
-54.5045045045045 -14.253398644059146 -3.0261553760343247 -34.01546190480756
-54.32432432432432 -13.82612358893886 -2.9404697874272285 -34.02969899518669
-54.14414414414414 -13.468093310394325 -2.8588278361567947 -34.044193410643885
-53.96396396396396 -13.176698057559042 -2.7829022331184206 -34.05853470922687
-53.78378378378378 -12.950446682920848 -2.7143517521526888 -34.07228326652391
-53.6036036036036 -12.788890687105441 -2.6547596663188604 -34.08498032865675
-53.42342342342342 -12.692608625777462 -2.605565485134811 -34.09615847766018
-53.24324324324324 -12.66325089833427 -2.567994190700906 -34.10535224339606
-53.06306306306306 -12.703652076202426 -2.5429883737723733 -34.1121086328979
-52.88288288288288 -12.818026990247182 -2.5311493017151445 -34.11599739135766
-52.7027027027027 -13.012279908241576 -2.5326927494862836 -34.11662085369181
-52.52252252252252 -13.294476992497195 -2.547424283127025 -34.11362328706858
-52.34234234234234 -13.67556777547762 -2.574736709816162 -34.10669965902138
-52.16216216216216 -14.170505485909635 -2.6136299240237197 -34.095603789810205
-51.98198198198198 -14.80003800202865 -2.6627508525530947 -34.08015585945218
-51.8018018018018 -15.593686722599996 -2.7204491113409186 -34.06024923814331
-51.62162162162162 -16.594956603796042 -2.784842690476625 -34.035856593266125
-51.44144144144144 -17.871024984344487 -2.8538876278261998 -34.007035197239475
-51.26126126126126 -19.53208431531873 -2.9254461409477823 -33.97393131935903
-51.08108108108108 -21.7725337544528 -2.9973488220419426 -33.936783533708685
-50.9009009009009 -24.952448946897352 -3.0674479503080687 -33.895924717612694
-50.72072072072072 -29.44398209689943 -3.133660447553794 -33.85178245588459
-50.54054054054054 -30.797967431453035 -3.194000281585641 -33.80487751208853
-50.36036036036036 -25.765468124982295 -3.2466010923857374 -33.75581998798158
-50.18018018018018 -21.57679002997054 -3.2897304523159616 -33.70530277705284
-50.0 -18.510663248412595 -3.321797510418029 -33.65409193986227
-49.81981981981982 -16.129888319643126 -3.3413558823146525 -33.603013700192804
-49.63963963963964 -14.190041430761875 -3.3471036101638147 -33.552937892553054
-49.45945945945946 -12.55583378633369 -3.3378819036672174 -33.504757889370886
-49.27927927927928 -11.146581642749032 -3.312674240974916 -33.45936729839097
-49.0990990990991 -9.910789270651433 -3.2706072989426827 -33.41763403422494
-48.91891891891892 -8.813745022118827 -3.2109551221896244 -33.38037270631582
-48.73873873873874 -7.8310104372555545 -3.1331479436856258 -33.34831658935378
-48.55855855855856 -6.944767717399705 -3.036787138730343 -33.32209070258739
-48.37837837837838 -6.141651845288257 -2.9216679195026107 -33.30218767059535
-48.1981981981982 -5.411401554023078 -2.787811532662846 -33.28894802713729
-48.01801801801802 -4.745985729116656 -2.635508855936197 -33.28254643204176
-47.83783783783784 -4.139018236478485 -2.465377308279307 -33.28298490286465
-47.65765765765766 -3.5853544555696355 -2.278432735319872 -33.290093653409734
-47.47747747747748 -3.08080609392626 -2.0761771571607204 -33.30353954215759
-47.2972972972973 -2.621935237359669 -1.8607015967077414 -33.322841542889535
-47.11711711711712 -2.2059028451348057 -1.6348001384492303 -33.347392135196394
-46.93693693693694 -1.8303555178557378 -1.402086315645542 -33.37648313662957
-46.75675675675676 -1.493339733319139 -1.167095417358401 -33.409334296811515
-46.57657657657658 -1.1932361786283476 -0.9353464291207543 -33.445122951718844
-46.3963963963964 -0.9287090562257284 -0.7133264775913479 -33.48301317052406
-46.21621621621622 -0.6986667484240117 -0.5083525459648723 -33.522183075467446
-46.03603603603604 -0.5022312558887116 -0.3282664579653122 -33.56184932658273
-45.85585585585586 -0.3387145452414764 -0.1809380749059314 -33.601288089123635
-45.67567567567568 -0.20760045400122523 -0.07359415213626655 -33.63985210315397
-45.4954954954955 -0.1085311751922194 -0.012052222530031749 -33.676983726179984
-45.31531531531532 -0.04129762408336311 0.0 -33.71222400879133
-45.13513513513514 -0.0058332063411049555 -0.03848849005350973 -33.7452179895706
-44.95495495495496 -0.0022106820083599033 -0.12577440105055412 -33.77571646702694
-44.77477477477478 -0.030641969163749616 -0.2575566553637332 -33.8035745360451
-44.5945945945946 -0.09148086753379187 -0.42754032815967485 -33.828747179408495
-44.414414414414416 -0.18522881672436114 -0.6281804056912501 -33.8512821961825
-44.234234234234236 -0.31254394681109665 -0.8514385319861413 -33.87131074108381
-44.054054054054056 -0.47425384249417024 -1.0894231800955052 -33.88903575242119
-43.873873873873876 -0.6713726400763613 -1.3348473986268992 -33.90471856716004
-43.693693693693696 -0.9051233277459504 -1.5812973201413483 -33.91866406249343
