Angle Bartlett MVDR MUSIC
-90.0 -19.660246957399682 -24.81819098113215 -41.762907709799634
-89.81981981981981 -19.65934421504906 -24.8181753869587 -41.76289608823048
-89.63963963963964 -19.65663698598471 -24.818128598025208 -41.76286120212734
-89.45945945945945 -19.652128263716264 -24.81805059513742 -41.76280298735235
-89.27927927927928 -19.645823035905654 -24.81794134645539 -41.76272133717316
-89.09909909909909 -19.637728282048904 -24.817800807719273 -41.76261610250934
-88.91891891891892 -19.62785297015577 -24.817628922565266 -41.76248709227767
-88.73873873873873 -19.61620805235596 -24.81742562293178 -41.76233407383691
-88.55855855855856 -19.60280645934226 -24.81719082955568 -41.76215677353269
-88.37837837837837 -19.587663093545654 -24.816924452558563 -41.76195487734283
-88.1981981981982 -19.57079482092491 -24.816626392122796 -41.761728031624344
-88.01801801801801 -19.55222046124401 -24.816296539257287 -41.76147584396269
-87.83783783783784 -19.53196077670307 -24.815934776652632 -41.76119788412442
-87.65765765765765 -19.510038458786447 -24.815540979625446 -41.76089368511423
-87.47747747747748 -19.486478113191847 -24.815115017151474 -41.76056274433773
-87.29729729729729 -19.461306242707085 -24.814656752987062 -41.76020452487093
-87.11711711711712 -19.434551227910475 -24.814166046878515 -41.759818456837976
-86.93693693693693 -19.40624330558038 -24.813642755858712 -41.75940393889845
-86.75675675675676 -19.37641454471365 -24.813086735630264 -41.758960339845444
-86.57657657657657 -19.34509882006999 -24.81249784203438 -41.75848700031611
-86.3963963963964 -19.31233178317934 -24.811875932604444 -41.75798323461588
-86.21621621621621 -19.278150830769768 -24.81122086820328 -41.757448332657916
-86.03603603603604 -19.24259507059989 -24.81053251474259 -41.75688156201914
-85.85585585585585 -19.205705284701878 -24.809810744983324 -41.75628217011422
-85.67567567567568 -19.167523890070452 -24.809055440415126 -41.75564938648883
-85.49549549549549 -19.128094896857895 -24.808266493213043 -41.7549824252334
-85.31531531531532 -19.08746386416314 -24.807443808269255 -41.754280487518486
-85.13513513513513 -19.045677853529 -24.80658730529752 -41.7535427642528
-84.95495495495496 -19.002785380287126 -24.805696921007588 -41.75276843886471
-84.77477477477477 -18.95883636291566 -24.80477261134661 -41.75195669020808
-84.5945945945946 -18.913882070595307 -24.80381435380422 -41.75110669559275
-84.41441441441441 -18.867975069172367 -24.802822149777704 -41.75021763394011
-84.23423423423424 -18.821169165754444 -24.8017960269932 -41.74928868906382
-84.05405405405405 -18.773519352181506 -24.800736041978546 -41.748319053075384
-83.87387387387388 -18.725081747627403 -24.799642282583054 -41.74730792991425
-83.69369369369369 -18.675913540598273 -24.798514870538956 -41.7462545390014
-83.51351351351352 -18.626072930602415 -24.79735396405885 -41.74515811901537
-83.33333333333333 -18.5756190697693 -24.79615976046314 -41.744017931789216
-83.15315315315316 -18.52461200470001 -24.794932498830818 -41.74283326632608
-82.97297297297297 -18.47311261882876 -24.793672462666546 -41.74160344293148
-82.7927927927928 -18.42118257557297 -24.7923799825764 -41.740327817458756
-82.61261261261261 -18.368884262542657 -24.791055438944273 -41.73900578566479
-82.43243243243244 -18.31628073707385 -24.789699264600177 -41.73763678767156
-82.25225225225225 -18.263435673337977 -24.788311947471318 -41.73622031252918
-82.07207207207207 -18.210413311270386 -24.78689403320612 -41.7347559028751
-81.89189189189189 -18.157278407545196 -24.785446127760924 -41.73324315968367
-81.71171171171171 -18.10409618881158 -24.783968899938426 -41.73168174709927
-81.53153153153153 -18.050932307388795 -24.782463083866375 -41.73007139734597
-81.35135135135135 -17.997852799602434 -24.780929481404463 -41.7284119157054
-81.17117117117117 -17.944924046927547 -24.779368964466823 -41.72670318555401
-80.990990990991 -17.892212740086144 -24.777782477246895 -41.72494517345002
-80.8108108108108 -17.839785846231354 -24.776171038330933 -41.72313793425936
-80.63063063063063 -17.787710579332106 -24.774535742685902 -41.72128161630911
-80.45045045045045 -17.736054373857083 -24.772877763506933 -41.719376466556
-80.27027027027027 -17.684884861840466 -24.771198353909135 -41.71742283575646
-80.09009009009009 -17.634269853396724 -24.76949884844789 -41.715421183623846
-79.90990990990991 -17.584277320738604 -24.76778066445169 -41.71337208395738
-79.72972972972973 -17.534975385738235 -24.766045303150776 -41.711276229726224
-79.54954954954955 -17.486432311060327 -24.764294350584922 -41.70913443809117
-79.36936936936937 -17.438716494884684 -24.762529478273073 -41.70694765534528
-79.1891891891892 -17.39189646922686 -24.76075244362768 -41.704716961753725
-79.009009009009 -17.346040901855574 -24.758965090096158 -41.70244357627189
-78.82882882882883 -17.301218601800716 -24.75716934701201 -41.70012886111987
-78.64864864864865 -17.257498528438052 -24.75536722913814 -41.697774326190356
-78.46846846846847 -17.21494980413288 -24.753560835884993 -41.69538163326546
-78.28828828828829 -17.17364173042139 -24.751752350186358 -41.69295260001762
-78.10810810810811 -17.1336438077062 -24.749944037016128 -41.690489203768095
-77.92792792792793 -17.095025758441253 -24.74813824152955 -41.68799358497572
-77.74774774774775 -17.057857553781147 -24.746337386813344 -41.68546805042788
-77.56756756756756 -17.02220944367084 -24.744543971229497 -41.68291507610422
-77.38738738738739 -16.988151990352797 -24.742760565338635 -41.68033730968329
-77.2072072072072 -16.9557561052723 -24.74098980838971 -41.67773757266112
-77.02702702702703 -16.92509308936298 -24.73923440436397 -41.675118862050326
-76.84684684684684 -16.89623467669955 -24.73749711756244 -41.67248435162746
-76.66666666666667 -16.86925308150824 -24.73578076772771 -41.669837392696174
-76.48648648648648 -16.84422104853003 -24.7340882246923 -41.66718151433294
-76.30630630630631 -16.821211906735144 -24.73242240254789 -41.66452042308238
-76.12612612612612 -16.800299626393652 -24.730786253331534 -41.66185800206863
-75.94594594594595 -16.781558879508736 -24.729182760227268 -41.65919830948975
-75.76576576576576 -16.765065103624398 -24.727614930283703 -41.65654557646211
-75.58558558558559 -16.750894569022034 -24.726085786650934 -41.653904204182304
-75.4054054054054 -16.73912444932164 -24.724598360342576 -41.65127876037482
-75.22522522522523 -16.729832895503783 -24.723155681531686 -41.64867397499468
-75.04504504504504 -16.723099113368207 -24.721760770392393 -41.64609473515508
-74.86486486486487 -16.719003444439995 -24.720416627502072 -41.643546079252175
-74.68468468468468 -16.717627450327747 -24.71912622382236 -41.64103319025985
-74.50450450450451 -16.719054000530075 -24.717892490280633 -41.638561388170416
-74.32432432432432 -16.723367363668764 -24.716718306977125 -41.636136121558295
-74.14414414414415 -16.73065330211051 -24.715606492046582 -41.63376295824741
-73.96396396396396 -16.740999169910577 -24.714559790206888 -41.631447575064925
-73.78378378378379 -16.754494013977464 -24.713580861031026 -41.62919574666784
-73.6036036036036 -16.771228678314397 -24.71267226698245 -41.62701333343229
-73.42342342342343 -16.79129591113555 -24.71183646125768 -41.62490626839893
-73.24324324324324 -16.81479047458603 -24.711075775483856 -41.622880543272494
-73.06306306306307 -16.84180925670493 -24.710392407322534 -41.62094219347766
-72.88288288288288 -16.872451385161572 -24.70978840803468 -41.61909728227833
-72.70270270270271 -16.906818342160562 -24.709265670065417 -41.617351883972525
-72.52252252252252 -16.945014079742045 -24.708825914710285 -41.615712066180464
-72.34234234234233 -16.98714513450058 -24.708470679928027 -41.614183871248855
-72.16216216216216 -17.033320740492304 -24.708201308367812 -41.61277329680065
-71.98198198198199 -17.08365293879289 -24.708018935681523 -41.61148627546513
-71.8018018018018 -17.138256681789176 -24.707924479194055 -41.61032865382992
-71.62162162162161 -17.197249929829166 -24.70791862700664 -41.60930617066236
-71.44144144144144 -17.26075373728593 -24.70800182760992 -41.6084244344549
-71.26126126126127 -17.328892324407054 -24.708174280084698 -41.60768890035481
-71.08108108108108 -17.401793130475173 -24.708435924969212 -41.60710484654576
-70.9009009009009 -17.47958684277879 -24.70878643587204 -41.606677350155095
-70.72072072072072 -17.56240739463635 -24.709225211909782 -41.606411262766834
-70.54054054054055 -17.650391924181132 -24.709751371047876 -41.606311185626765
-70.36036036036036 -17.74368068373918 -24.710363744421805 -41.606381444632135
-70.18018018018017 -17.84241688734134 -24.711060871714224 -41.60662606520396
-70.0 -17.946746481107898 -24.711840997661206 -41.60704874714531
-69.81981981981983 -18.056817817822193 -24.712702069757903 -41.60765283959398
-69.63963963963964 -18.172781212825438 -24.713641737230503 -41.60844131618244
-69.45945945945945 -18.294788353255296 -24.714657351337213 -41.609416750521724
-69.27927927927928 -18.42299152641569 -24.715745967056392 -41.61058129212939
-69.0990990990991 -18.55754262546246 -24.716904346214747 -41.61193664292433
-68.91891891891892 -18.698591881336746 -24.718128962102615 -41.613484034413204
-68.73873873873873 -18.846286258643122 -24.71941600561704 -41.6152242056945
-68.55855855855856 -19.000767439574457 -24.72076139296653 -41.617157382406695
-68.37837837837839 -19.162169303597828 -24.722160774963754 -41.61928325674669
-68.1981981981982 -19.33061479099148 -24.72360954792495 -41.62160096868355
-68.01801801801801 -19.506212014997935 -24.725102866185967 -41.624109088490435
-67.83783783783784 -19.689049459936403 -24.72663565623662 -41.62680560071485
-67.65765765765767 -19.879190070854 -24.728202632465603 -41.62968788970374
-67.47747747747748 -20.076664004255452 -24.729798314498836 -41.63275272679516
-67.29729729729729 -20.281459769764787 -24.731417046104447 -41.635996259283175
-67.11711711711712 -20.49351345084386 -24.733053015627448 -41.63941400125641
-66.93693693693695 -20.712695652054443 -24.73470027790723 -41.64300082640392
-66.75675675675676 -20.938795786356973 -24.73635277762025 -41.64675096287441
-66.57657657657657 -21.171503297742365 -24.738004373980324 -41.65065799026716
-66.3963963963964 -21.41038542644646 -24.739648866717907 -41.654714838823715
-66.21621621621622 -21.654861187664196 -24.74128002324973 -41.65891379088115
-66.03603603603604 -21.9041713810573 -24.742891606939168 -41.66324648463749
-65.85585585585585 -22.15734471982341 -24.744477406337715 -41.667703920270895
-65.67567567567568 -22.41316061903701 -24.74603126528749 -41.672276468443755
-65.4954954954955 -22.67010987692162 -24.747547113754496 -41.676953881213294
-65.31531531531532 -22.926355482701 -24.749018999252826 -41.68172530536004
-65.13513513513513 -23.179697132003966 -24.75044111871008 -41.68657929813606
-64.95495495495496 -23.42754470673688 -24.75180785061522 -41.69150384542479
-64.77477477477478 -23.66690784378818 -24.753113787281183 -41.69648638229543
-64.5945945945946 -23.894410447331957 -24.754353767046208 -41.70151381592579
-64.41441441441441 -24.106340008700165 -24.755522906229782 -41.70657255085886
-64.23423423423424 -24.298741042752653 -24.756616630651923 -41.71164851655096
-64.05405405405406 -24.46755886499451 -24.75763070651771 -41.716727197161646
-63.873873873873876 -24.608833582665675 -24.758561270462923 -41.72179366352917
-63.693693693693696 -24.718934607135328 -24.759404858551513 -41.72683260726936
-63.513513513513516 -24.79481463353347 -24.760158434011032 -41.73182837693091
-63.333333333333336 -24.834251860086383 -24.760819413488914 -41.73676501613527
-63.153153153153156 -24.836044142291044 -24.761385691609945 -41.74162630362625
-62.972972972972975 -24.80012205351788 -24.761855663613915 -41.74639579515157
-62.792792792792795 -24.727560168488516 -24.762228245852608 -41.75105686709631
-62.612612612612615 -24.62048445987001 -24.762502893926364 -41.755592761787376
-62.432432432432435 -24.481892928397507 -24.76267961824334 -41.759986634387175
-62.252252252252255 -24.31542060190305 -24.76275899678904 -41.764221601295056
-62.072072072072075 -24.125085285886815 -24.762742184899544 -41.76828078997535
-61.891891891891895 -23.915046923014263 -24.762630921840056 -41.77214739013233
-61.711711711711715 -23.689403989373474 -24.762427534000203 -41.77580470615361
-61.531531531531535 -23.452038948829298 -24.762134934529442 -41.77923621074551
-61.351351351351354 -23.206514669410012 -24.76175661925027 -41.78242559968574
-61.171171171171174 -22.95601663293173 -24.761296658703415 -41.78535684762083
-60.990990990990994 -22.703332038741898 -24.7607596861981 -41.788014264837734
-60.81081081081081 -22.45085589268747 -24.760150881761945 -41.790382554940415
-60.630630630630634 -22.20061492884025 -24.759475951909018 -41.792446873364135
-60.45045045045045 -21.954301847552667 -24.758741105170973 -41.794192886660355
-60.270270270270274 -21.713314227122652 -24.757953023365538 -41.79560683248549
-60.09009009009009 -21.478794199451553 -24.75711882860786 -41.79667558022608
-59.90990990990991 -21.25166640134355 -24.756246046104575 -41.79738669219091
-59.729729729729726 -21.032672784317825 -24.75534256280648 -41.79772848529752
-59.54954954954955 -20.822403619443982 -24.754416582034374 -41.79769009317634
-59.369369369369366 -20.621324530479995 -24.75347657423278 -41.79726152860927
-59.18918918918919 -20.429799693025625 -24.752531224048138 -41.796433746211825
-59.009009009009006 -20.24811150621687 -24.75158937397139 -41.79519870525823
-58.82882882882883 -20.076477121616925 -24.750659964828664 -41.79354943253669
-58.648648648648646 -19.915062234668408 -24.7497519734481 -41.79148008510795
-58.46846846846847 -19.763992530719683 -24.748874347875276 -41.7889860128234
-58.288288288288285 -19.623363145917256 -24.748035940552825 -41.78606382043966
-58.10810810810811 -19.493246463263855 -24.747245439922256 -41.78271142914436
-57.92792792792793 -19.373698522060213 -24.746511300945954 -41.77892813728289
-57.74774774774775 -19.264764278334972 -24.745841675084748 -41.77471468004772
-57.56756756756757 -19.166481916566752 -24.745244340300733 -41.77007328786114
-57.38738738738739 -19.078886379792543 -24.7447266316847 -41.76500774314781
-57.20720720720721 -19.00201225620924 -24.74429537333295 -41.75952343515696
-57.02702702702703 -18.93589613537745 -24.743956812118025 -41.753627412453504
-56.84684684684685 -18.880578525708238 -24.74371655401133 -41.74732843265518
-56.66666666666667 -18.836105406547333 -24.743579503622996 -41.74063700894712
-56.48648648648649 -18.802529472335713 -24.74354980762376 -41.733565452857995
-56.30630630630631 -18.779911112499278 -24.74363080270631 -41.72612791273286
-56.12612612612613 -18.76831915839379 -24.743824968727655 -41.718340407286775
-55.94594594594595 -18.767831417320096 -24.7441338876505 -41.71022085357302
-55.76576576576577 -18.77853500284543 -24.74455820886968 -41.70178908864824
-55.58558558558559 -18.800526459939245 -24.745097621469792 -41.69306688416759
-55.4054054054054 -18.833911672250146 -24.745750833912062 -41.68407795309548
-55.22522522522522 -18.87880552666331 -24.74651556159324 -41.67484794767367
-55.04504504504504 -18.935331296471414 -24.747388522656316 -41.6654044477493
-54.86486486486486 -19.003619688351556 -24.748365442363806 -41.65577693853362
-54.68468468468468 -19.083807479019605 -24.74944106626915 -41.64599677683722
-54.5045045045045 -19.176035643934483 -24.750609182341496 -41.63609714481437
-54.32432432432432 -19.280446851531895 -24.75186265211489 -41.626112990246575
-54.14414414414414 -19.397182160750923 -24.753193450845053 -41.61608095240809
-53.96396396396396 -19.52637671538656 -24.754592716567284 -41.60603927258475
-53.78378378378378 -19.6681541741224 -24.75605080785791 -41.59602768836458
-53.6036036036036 -19.82261954786498 -24.7575573700105 -41.586087310886406
-53.42342342342342 -19.989850034098136 -24.759101409247876 -41.576260484322766
-53.24324324324324 -20.169883339635444 -24.760671374502717 -41.56659062698783
-53.06306306306306 -20.36270286763436 -24.762255246213698 -41.557122053601006
-52.88288288288288 -20.568219013518775 -24.763840631502866 -41.54789977840317
-52.7027027027027 -20.786245673233985 -24.76541486502235 -41.53896929901619
-52.52252252252252 -21.01647092921425 -24.76696511468685 -41.530376361156456
-52.34234234234234 -21.258420770314757 -24.768478491442316 -41.5221667045597
-52.16216216216216 -21.51141466755311 -24.769942162161644 -41.5143857907443
-51.98198198198198 -21.77451194409654 -24.77134346470582 -41.50707851353272
-51.8018018018018 -22.046448265231007 -24.772670024143363 -41.50028889356031
-51.62162162162162 -22.32556240836456 -24.773909869083553 -41.494059758323935
-51.44144144144144 -22.60971499394579 -24.775051547048747 -41.488432409653804
-51.26126126126126 -22.896203353525276 -24.776084237789433 -41.48344628082404
-51.08108108108108 -23.181680454976863 -24.776997863431976 -41.479138585843074
-50.9009009009009 -23.462090907069975 -24.777783194343503 -41.47554396377678
-50.72072072072072 -23.73264319458425 -24.77843194960186 -41.47269412124551
-50.54054054054054 -23.98784327166596 -24.778936890969845 -41.47061747649319
-50.36036036036036 -24.221618024797294 -24.77929190929406 -41.46933880864269
-50.18018018018018 -24.427554137270036 -24.77949210227779 -41.4688789159186
-50.0 -24.599264316935987 -24.779533842616797 -41.469254286729075
-49.81981981981982 -24.730866350215376 -24.779414835535015 -41.470476787544484
-49.63963963963964 -24.817524044283346 -24.779134164816014 -41.47255337148887
-49.45945945945946 -24.855963690307977 -24.778692326494728 -41.47548581146484
-49.27927927927928 -24.84486196627794 -24.778091249453695 -41.47927046146432
-49.0990990990991 -24.785015566704203 -24.777334302258723 -41.48389804947446
-48.91891891891892 -24.679250554926035 -24.77642628567102 -41.48935350507605
-48.73873873873874 -24.532094129867797 -24.775373410386763 -41.495615824452415
-48.55855855855856 -24.34928691956017 -24.77418325968083 -41.50265797509188
-48.37837837837838 -24.137239272780256 -24.772864736768987 -41.51044684198138
-48.1981981981982 -23.902526091477235 -24.77142799685225 -41.51894321656849
-48.01801801801802 -23.651482895818887 -24.769884363967485 -41.528101829223026
-47.83783783783784 -23.389928182780867 -24.768246232939653 -41.53787142537364
-47.65765765765766 -23.123006918841043 -24.766526956911346 -41.54819488494293
-47.47747747747748 -22.855132518310143 -24.764740721113803 -41.55900938417002
-47.2972972972973 -22.589998834036518 -24.762902403738522 -41.57024659840687
-47.11711711711712 -22.33063555930833 -24.76102742496669 -41.58183294401607
-46.93693693693694 -22.079485942331086 -24.75913158541408 -41.59368985709409
-46.75675675675676 -21.83849197369945 -24.75723089544659 -41.60573410640463
-46.57657657657658 -21.60917769177038 -24.75534139701479 -41.617878137639096
-46.3963963963964 -21.392725415251817 -24.75347897983926 -41.63003044592944
-46.21621621621622 -21.19004256655138 -24.75165919394953 -41.642095973425995
-46.03603603603604 -21.001818537986527 -24.749897060732454 -41.65397652871904
-45.85585585585586 -20.828572069314973 -24.748206884778227 -41.66557122492631
-45.67567567567568 -20.670690106724354 -24.74660206891803 -41.676776933384836
-45.4954954954955 -20.528459296033716 -24.745094934924122 -41.687488750069576
-45.31531531531532 -20.40209126215443 -24.743696552386126 -41.69760047210545
-45.13513513513514 -20.291742730875985 -24.742416578284008 -41.70700508203645
-44.95495495495496 -20.19753141151023 -24.741263109745656 -41.715595237855396
-44.77477477477478 -20.11954841056116 -24.740242552403767 -41.723263767172874
-44.5945945945946 -20.057867803414954 -24.739359506651365 -41.729904164303484
-44.414414414414416 -20.012553860185584 -24.738616673938427 -41.73541108946235
-44.234234234234236 -19.983666305192664 -24.738014785054222 -41.73968086968738
-44.054054054054056 -19.971263886102733 -24.737552552103065 -41.74261200152177
-43.873873873873876 -19.975406435998405 -24.73722664560892 -41.7441056559013
-43.693693693693696 -19.996155526249268 -24.737031697879537 -41.744066186082165
